   Step           Lx          Atoms         Temp          PotEng           Lx             Ly             Lz           Press           Pxx            Pyy            Pzz      
         0   9.24                  64   300           -472.74587      9.24           9.24           9.24          -10490.741     -9927.5259     -10702.799     -10841.897    
       100   9.2399999             64   233.58632     -471.84962      9.2399999      9.2399999      9.2399999     -8410.4013     -7542.9107     -8141.8816     -9546.4115    
       200   9.2399996             64   189.818       -470.87954      9.2399996      9.2399996      9.2399996     -5546.9251     -3022.8832     -5782.4187     -7835.4732    
       300   9.2399991             64   259.74065     -470.67856      9.2399991      9.2399991      9.2399991     -3116.7179     -2735.6953     -218.62852     -6395.8298    
       400   9.2399985             64   320.94414     -470.46415      9.2399985      9.2399985      9.2399985     -4245.6644     -1434.5398     -4392.2529     -6910.2005    
       500   9.2399978             64   349.47067     -470.173        9.2399978      9.2399978      9.2399978     -3039.798      -2141.9252     -3937.9836     -3039.4854    
       600   9.2399971             64   335.74971     -469.99246      9.2399971      9.2399971      9.2399971     -1897.1549     -241.76727     -4591.0215     -858.67602    
       700   9.2399963             64   288.81959     -470.07985      9.2399963      9.2399963      9.2399963     -4746.5468     -1394.622      -8706.0266     -4138.9916    
       800   9.2399955             64   303.17926     -470.58778      9.2399955      9.2399955      9.2399955     -4200.9488     -2833.0175     -4843.1725     -4926.6565    
       900   9.2399946             64   357.90394     -471.06461      9.2399946      9.2399946      9.2399946     -4128.3299     -2386.3285     -4216.308      -5782.3531    
      1000   9.2399935             64   354.2724      -470.7941       9.2399935      9.2399935      9.2399935     -4225.6408     -3343.0543     -3045.3784     -6288.4897    
      1100   9.2399924             64   335.72094     -470.2398       9.2399924      9.2399924      9.2399924     -2888.294      -927.55348     -3318.0246     -4419.304     
      1200   9.2399913             64   326.20775     -470.03993      9.2399913      9.2399913      9.2399913     -1007.8562     -943.29479      1791.7404     -3872.0143    
      1300   9.2399901             64   237.81898     -469.67525      9.2399901      9.2399901      9.2399901     -2463.1455     -2933.5887     -1329.7497     -3126.0981    
      1400   9.2399888             64   232.12828     -470.35318      9.2399888      9.2399888      9.2399888     -3940.9372     -2757.5644     -5589.05       -3476.1973    
      1500   9.2399874             64   224.30192     -470.3101       9.2399874      9.2399874      9.2399874     -3426.1037     -3893.4045     -3562.5945     -2822.3121    
      1600   9.2399858             64   209.86446     -469.83558      9.2399858      9.2399858      9.2399858     -3577.5825     -2036.5965     -5161.697      -3534.454     
      1700   9.2399842             64   283.92008     -470.01046      9.2399842      9.2399842      9.2399842     -1676.2098      681.38291     -3230.8812     -2479.131     
      1800   9.2399826             64   336.12533     -470.23256      9.2399826      9.2399826      9.2399826     -1279.6593      787.6187      -2053.4408     -2573.1559    
      1900   9.2399808             64   324.77471     -470.27456      9.2399808      9.2399808      9.2399808     -2955.1995     -2005.9739     -1715.7884     -5143.8362    
      2000   9.239979              64   280.68374     -470.4778       9.239979       9.239979       9.239979      -3435.0858     -2712.28       -2758.8536     -4834.1236    
      2100   9.2399771             64   291.84199     -470.81444      9.2399771      9.2399771      9.2399771     -4900.0072     -3175.3141     -5494.5272     -6030.1804    
      2200   9.2399751             64   237.29346     -470.13816      9.2399751      9.2399751      9.2399751     -3031.065      -3675.4246     -2563.798      -2853.9725    
      2300   9.2399731             64   278.99845     -470.10655      9.2399731      9.2399731      9.2399731     -1007.1099     -387.97247      50.615638     -2683.973     
      2400   9.2399709             64   281.08422     -470.00903      9.2399709      9.2399709      9.2399709     -2757.8555     -1461.471      -3737.7758     -3074.3197    
      2500   9.2399686             64   272.47856     -469.94111      9.2399686      9.2399686      9.2399686     -3065.1357     -905.79907     -5046.9502     -3242.6579    
      2600   9.2399663             64   358.4816      -470.64371      9.2399663      9.2399663      9.2399663     -2797.6485     -1492.6341     -3055.0104     -3845.3011    
      2700   9.2399639             64   311.45516     -470.68294      9.2399639      9.2399639      9.2399639     -4247.3408     -4183.8113     -5326.8777     -3231.3335    
      2800   9.2399615             64   283.29525     -470.81073      9.2399615      9.2399615      9.2399615     -5901.728      -5890.6514     -6894.4039     -4920.1286    
      2900   9.2399589             64   339.50089     -470.93998      9.2399589      9.2399589      9.2399589     -4589.0464     -4215.8034     -3218.8776     -6332.4582    
      3000   9.2399562             64   353.06055     -470.60613      9.2399562      9.2399562      9.2399562     -3570.173      -4633.2365     -2581.2799     -3496.0025    
      3100   9.2399534             64   354.56179     -470.55318      9.2399534      9.2399534      9.2399534     -3167.8113      689.63984     -5517.576      -4675.4978    
      3200   9.2399506             64   369.61942     -470.68713      9.2399506      9.2399506      9.2399506     -2520.0433     -794.32634     -3174.9971     -3590.8065    
      3300   9.2399477             64   322.32182     -470.49687      9.2399477      9.2399477      9.2399477     -3976.0083      671.78184     -4560.416      -8039.3909    
      3400   9.2399447             64   298.95117     -470.56978      9.2399447      9.2399447      9.2399447     -4199.6972     -2114.3874     -4382.6531     -6102.051     
      3500   9.2399416             64   308.2615      -470.8848       9.2399416      9.2399416      9.2399416     -4738.4583     -4116.4756     -4934.4229     -5164.4764    
      3600   9.2399385             64   317.00006     -470.81184      9.2399385      9.2399385      9.2399385     -5311.6913     -3240.4718     -5190.4564     -7504.1456    
      3700   9.2399352             64   330.21418     -470.34179      9.2399352      9.2399352      9.2399352     -3930.0085     -4520.5711     -4059.5764     -3209.878     
      3800   9.2399318             64   347.73792     -470.32694      9.2399318      9.2399318      9.2399318     -3195.3108     -7535.9522      1819.6397     -3869.62      
      3900   9.2399284             64   311.70603     -470.1892       9.2399284      9.2399284      9.2399284     -3206.8238     -3844.8848     -2523.9583     -3251.6283    
      4000   9.239925              64   303.07527     -470.43515      9.239925       9.239925       9.239925      -2890.6556     -2159.1507     -3908.9997     -2603.8164    
      4100   9.2399214             64   330.01683     -471.1215       9.2399214      9.2399214      9.2399214     -4153.1508     -5626.2657     -2608.0562     -4225.1304    
      4200   9.2399177             64   270.70884     -470.68159      9.2399177      9.2399177      9.2399177     -5148.7166     -4553.7144     -6158.3345     -4734.1008    
      4300   9.2399139             64   296.46307     -470.08274      9.2399139      9.2399139      9.2399139     -2196.3253     -1172.2886     -1595.4998     -3821.1876    
      4400   9.2399101             64   342.83547     -470.30298      9.2399101      9.2399101      9.2399101     -1795.7494      1490.4264     -2987.4216     -3890.253     
      4500   9.2399062             64   320.20473     -470.31887      9.2399062      9.2399062      9.2399062     -3716.4733     -2439.7971     -3775.7391     -4933.8839    
      4600   9.2399022             64   302.30047     -470.47305      9.2399022      9.2399022      9.2399022     -4096.0874     -159.55788     -5282.317      -6846.3873    
      4700   9.2398981             64   276.20267     -470.46398      9.2398981      9.2398981      9.2398981     -3845.5796      816.8449      -6634.7705     -5718.8132    
      4800   9.2398939             64   231.22359     -469.99608      9.2398939      9.2398939      9.2398939     -2878.3361     -3068.6057     -2298.9635     -3267.4392    
      4900   9.2398896             64   318.02293     -470.06183      9.2398896      9.2398896      9.2398896     -2801.8765      1568.7278     -4233.3907     -5740.9667    
      5000   9.2398853             64   339.34856     -470.07538      9.2398853      9.2398853      9.2398853     -1264.3498      3127.5327     -2047.3329     -4873.2492    
      5100   9.2398809             64   275.66905     -469.90639      9.2398809      9.2398809      9.2398809     -2747.043      -1080.8708     -6906.3201     -253.93811    
      5200   9.2398765             64   298.21523     -470.49373      9.2398765      9.2398765      9.2398765     -4036.1256     -1154.5836     -4150.4405     -6803.3528    
      5300   9.2398719             64   325.08013     -470.79627      9.2398719      9.2398719      9.2398719     -3952.7125     -3231.9153     -1913.7751     -6712.447     
      5400   9.2398673             64   279.41679     -470.32552      9.2398673      9.2398673      9.2398673     -4085.5417     -1430.2944     -4954.6831     -5871.6476    
      5500   9.2398625             64   317.33698     -470.42687      9.2398625      9.2398625      9.2398625     -3274.1766     -3667.4768     -2310.9099     -3844.143     
      5600   9.2398577             64   321.5369      -470.22845      9.2398577      9.2398577      9.2398577     -3129.3905     -553.02716     -2139.4028     -6695.7417    
      5700   9.2398528             64   332.78229     -470.07795      9.2398528      9.2398528      9.2398528     -3089.8295     -2031.8578     -1294.7418     -5942.8889    
      5800   9.2398479             64   321.1847      -469.8245       9.2398479      9.2398479      9.2398479     -570.81562     -139.4426       941.19537     -2514.1996    
      5900   9.2398429             64   283.11287     -469.92603      9.2398429      9.2398429      9.2398429     -2692.8088     -587.45644     -3159.2782     -4331.6919    
      6000   9.2398378             64   296.57759     -470.52811      9.2398378      9.2398378      9.2398378     -3729.6576     -53.21865      -4510.4168     -6625.3375    
      6100   9.2398327             64   312.67085     -470.65737      9.2398327      9.2398327      9.2398327     -3511.9449     -683.97027     -4196.273      -5655.5914    
      6200   9.2398275             64   338.05819     -470.57938      9.2398275      9.2398275      9.2398275     -3829.3688     -2791.0824     -4060.1        -4636.9242    
      6300   9.2398222             64   386.19644     -470.46769      9.2398222      9.2398222      9.2398222     -2322.2675     -1128.5215     -2767.2712     -3071.0098    
      6400   9.2398168             64   384.64062     -470.43437      9.2398168      9.2398168      9.2398168     -2091.0715     -1432.8579     -3613.8146     -1226.5419    
      6500   9.2398114             64   332.82877     -470.24784      9.2398114      9.2398114      9.2398114     -3117.6136     -4115.6074     -1739.8476     -3497.3859    
      6600   9.2398059             64   317.19193     -470.39379      9.2398059      9.2398059      9.2398059     -3372.3225     -1687.9868     -5794.4946     -2634.4859    
      6700   9.2398004             64   309.00639     -470.53846      9.2398004      9.2398004      9.2398004     -3254.886      -2337.503      -2877.3225     -4549.8326    
      6800   9.2397947             64   243.07296     -470.11361      9.2397947      9.2397947      9.2397947     -3645.8662     -680.75511     -3731.4551     -6525.3884    
      6900   9.239789              64   314.22032     -470.42095      9.239789       9.239789       9.239789      -2821.0697     -1813.1373     -4743.9009     -1906.1708    
      7000   9.2397832             64   343.25712     -470.13941      9.2397832      9.2397832      9.2397832     -1426.0017      1145.225      -3428.7192     -1994.5107    
      7100   9.2397773             64   357.90478     -470.21779      9.2397773      9.2397773      9.2397773     -1131.9485     -579.63909     -2396.5959     -419.61061    
      7200   9.2397714             64   374.70678     -470.78396      9.2397714      9.2397714      9.2397714     -2663.7504     -3252.7044     -6454.8464      1716.2996    
      7300   9.2397655             64   331.97714     -470.81669      9.2397655      9.2397655      9.2397655     -3660.2832     -2766.481      -5518.3864     -2695.9824    
      7400   9.2397594             64   292.82649     -470.46558      9.2397594      9.2397594      9.2397594     -3309.4891     -3712.9306     -4164.8542     -2050.6824    
      7500   9.2397532             64   292.73579     -470.22733      9.2397532      9.2397532      9.2397532     -3196.909      -3898.5221     -4796.3849     -895.82003    
      7600   9.239747              64   333.21613     -470.3236       9.239747       9.239747       9.239747      -2925.1353     -3996.5826     -1469.0325     -3309.7906    
      7700   9.2397407             64   294.18175     -469.84647      9.2397407      9.2397407      9.2397407     -3423.8542     -2977.0863     -6333.4987     -960.9774     
      7800   9.2397344             64   305.86834     -469.8309       9.2397344      9.2397344      9.2397344     -1788.068      -3511.9282     -1180.8633     -671.41267    
      7900   9.239728              64   293.76281     -470.04977      9.239728       9.239728       9.239728      -2736.2398     -5050.8803     -2687.8259     -470.01307    
      8000   9.2397215             64   278.26589     -470.36833      9.2397215      9.2397215      9.2397215     -3748.7862     -4355.0767     -5865.6516     -1025.6304    
      8100   9.239715              64   324.55405     -470.80398      9.239715       9.239715       9.239715      -3282.9146     -4107.9154     -4664.4492     -1076.3792    
      8200   9.2397083             64   303.91101     -470.33157      9.2397083      9.2397083      9.2397083     -2601.1157     -2457.2795     -4928.3025     -417.76521    
      8300   9.2397016             64   297.98276     -469.74635      9.2397016      9.2397016      9.2397016     -1760.8637      1231.7273     -6958.1515      443.83315    
      8400   9.2396949             64   354.26065     -470.24588      9.2396949      9.2396949      9.2396949     -1730.8626      2336.219      -3859.7688     -3669.0381    
      8500   9.2396881             64   253.16427     -469.70801      9.2396881      9.2396881      9.2396881     -2304.3838      2027.3327     -6473.639      -2466.8451    
      8600   9.2396812             64   233.27814     -469.74596      9.2396812      9.2396812      9.2396812     -1846.4613      1833.8617     -3516.742      -3856.5035    
      8700   9.2396743             64   262.29024     -470.03886      9.2396743      9.2396743      9.2396743     -3122.2784      3225.762      -6105.5304     -6487.0667    
      8800   9.2396673             64   226.05475     -469.75462      9.2396673      9.2396673      9.2396673     -2813.59       -497.78196     -3529.7155     -4413.2724    
      8900   9.2396602             64   267.7029      -469.7767       9.2396602      9.2396602      9.2396602     -1370.2951      1351.0257     -1073.7374     -4388.1737    
      9000   9.2396531             64   360.29556     -469.85144      9.2396531      9.2396531      9.2396531     -78.822076      3365.2275     -489.1899      -3112.5038    
      9100   9.2396459             64   333.1446      -469.93015      9.2396459      9.2396459      9.2396459     -1790.909      -1463.7304     -1943.2812     -1965.7154    
      9200   9.2396387             64   351.74164     -470.64341      9.2396387      9.2396387      9.2396387     -3412.0605     -3299.5899     -2209.4405     -4727.1512    
      9300   9.2396314             64   310.67312     -470.48036      9.2396314      9.2396314      9.2396314     -1745.715      -2933.325       1375.255      -3679.0749    
      9400   9.2396241             64   293.22372     -470.34746      9.2396241      9.2396241      9.2396241     -3438.1389     -4872.8554     -633.09097     -4808.4704    
      9500   9.2396167             64   277.2297      -469.87358      9.2396167      9.2396167      9.2396167     -2357.4115     -3092.2588      2431.9905     -6411.966     
      9600   9.2396092             64   338.5748      -469.72918      9.2396092      9.2396092      9.2396092     -94.814958     -3713.3607      6211.0729     -2782.1571    
      9700   9.2396017             64   275.33965     -469.38519      9.2396017      9.2396017      9.2396017     -1303.3193     -2993.2896      4512.3787     -5429.0468    
      9800   9.2395942             64   299.48047     -470.00091      9.2395942      9.2395942      9.2395942     -1261.7644     -3066.6397      2267.9876     -2986.6411    
      9900   9.2395866             64   332.30514     -470.42287      9.2395866      9.2395866      9.2395866     -2418.3713     -1075.4736     -1120.2589     -5059.3813    
     10000   9.2395789             64   303.91539     -470.37633      9.2395789      9.2395789      9.2395789     -3460.5035     -3394.805      -3715.7993     -3270.9061    
     10100   9.2395712             64   330.14852     -470.64561      9.2395712      9.2395712      9.2395712     -3015.9839      534.06443     -3080.6704     -6501.3457    
     10200   9.2395634             64   327.51626     -470.6398       9.2395634      9.2395634      9.2395634     -2721.5953     -319.62749     -4476.5579     -3368.6004    
     10300   9.2395555             64   302.08941     -470.2168       9.2395555      9.2395555      9.2395555     -2362.4169      359.46435     -4289.5552     -3157.1599    
     10400   9.2395476             64   315.78496     -469.93463      9.2395476      9.2395476      9.2395476     -1023.5834      2491.7252      120.94975     -5683.4252    
     10500   9.2395396             64   314.51565     -469.89013      9.2395396      9.2395396      9.2395396     -568.25634      2178.47       -611.72532     -3271.5137    
     10600   9.2395315             64   236.61004     -469.8405       9.2395315      9.2395315      9.2395315     -2730.8677      1403.5039     -3410.2541     -6185.8531    
     10700   9.2395234             64   280.71304     -470.46996      9.2395234      9.2395234      9.2395234     -3981.454      -1825.9956     -4646.4696     -5471.8967    
     10800   9.2395152             64   269.03586     -470.26405      9.2395152      9.2395152      9.2395152     -3086.0421     -2617.0537     -4000.0662     -2641.0063    
     10900   9.2395069             64   301.35137     -470.19034      9.2395069      9.2395069      9.2395069     -3117.3292     -152.70214     -3361.3662     -5837.9192    
     11000   9.2394985             64   359.93705     -470.35291      9.2394985      9.2394985      9.2394985     -2431.2357     -678.76355     -1807.1447     -4807.7987    
     11100   9.2394901             64   342.13623     -470.26006      9.2394901      9.2394901      9.2394901     -3344.3119     -2219.8604     -1527.9598     -6285.1154    
     11200   9.2394816             64   342.90638     -470.39537      9.2394816      9.2394816      9.2394816     -2300.5478     -1979.3775     -909.65296     -4012.613     
